[Header]
Measurement Name = "EQE"
File Path = "/C/Users/Administrador/Documents/Roberto CICATA/EQE/EQE.TRQ"
time stamp = "07/08/2009 11:02:30 a.m."
Scan Type = "QE Scan"
X Units = "Wavelength (nm)"
Y Units = "QE (%)"

//DATA//
X	Y	Calculated
300.017	0.03528	58.06996
301.992	0.03723	59.40507
304.005	0.03961	60.75801
306.016	0.04175	62.07649
307.991	0.04382	63.10497
310.002	0.04626	64.4626
312.012	0.04846	66.98625
313.985	0.05066	69.82415
315.994	0.05292	72.5021
318.003	0.05542	75.13278
320.012	0.05841	77.3057
321.982	0.06122	76.8039
323.99	0.06403	76.02697
325.997	0.06635	75.16071
328.003	0.06958	73.98091
330.009	0.07239	72.62933
332.014	0.07538	69.56987
333.982	0.07886	66.26505
335.987	0.08203	62.77009
337.99	0.08508	59.27196
339.994	0.08844	56.67125
341.996	0.091	56.5779
343.999	0.09436	57.45807
346	0.09723	58.27669
348.001	0.10077	59.72422
350.002	0.10358	60.34451
352.002	0.10651	61.55788
354.001	0.10913	62.66553
356	0.112	64.15428
357.998	0.11475	66.2606
359.996	0.11755	66.78353
361.993	0.12085	67.49153
363.99	0.12427	67.94595
365.986	0.1272	67.49932
367.982	0.13117	67.56276
370.013	0.13489	67.73164
372.008	0.13739	68.39855
374.002	0.14105	68.86681
375.995	0.14459	69.01379
377.987	0.14874	69.60223
380.016	0.15357	69.96781
382.007	0.15692	70.55946
383.998	0.15906	70.85584
385.988	0.16266	71.47378
388.014	0.16742	72.26566
390.003	0.17371	72.93113
391.991	0.17987	73.66569
394.016	0.18915	74.23083
396.003	0.19849	75.40137
397.989	0.20191	75.86948
400.012	0.1983	76.57362
401.997	0.19659	76.95932
404.018	0.19861	77.28281
406.002	0.20227	78.07294
407.985	0.20752	78.53978
410.004	0.21295	79.3574
411.986	0.21552	79.63236
414.004	0.21686	80.21363
415.985	0.21802	80.51625
418.001	0.22498	81.0599
420.017	0.22961	81.15087
421.996	0.22662	82.38521
424.01	0.22534	81.8546
425.988	0.22754	82.58208
428.001	0.22907	82.58171
430.013	0.23071	83.27195
431.988	0.23285	85.21498
433.999	0.23639	84.00414
436.01	0.24213	84.11859
437.983	0.24878	84.22249
439.992	0.2486	84.69598
442	0.24756	84.9017
444.007	0.24677	84.98446
446.014	0.24909	84.7406
447.983	0.27124	85.45346
449.989	0.29462	84.66716
451.993	0.2854	85.00643
453.997	0.27655	85.32301
456	0.28644	84.94017
458.002	0.29822	85.6218
460.004	0.31684	86.58055
462.005	0.3465	86.32807
464.005	0.3534	86.63116
466.004	0.40076	86.71167
468.003	0.42767	87.15679
470	0.37372	86.36896
471.997	0.36371	87.21521
473.994	0.33881	86.88113
475.989	0.30213	87.61296
477.984	0.30823	88.13178
480.014	0.34125	87.93625
482.007	0.35138	88.22068
483.999	0.33173	87.91512
485.991	0.30939	88.02922
488.018	0.30359	88.59253
490.007	0.32538	89.75622
491.997	0.34571	89.34946
493.985	0.32373	89.31431
496.008	0.30414	89.85021
497.995	0.29639	89.47283
500.017	0.29541	89.4226
502.002	0.29785	90.0272
503.986	0.29724	89.34955
506.006	0.29505	89.52472
507.988	0.29328	89.10088
510.006	0.29499	89.72339
511.986	0.29645	89.52021
514.002	0.29657	89.77341
516.017	0.29602	89.73491
517.996	0.29535	90.2052
520.009	0.297	90.3536
521.986	0.2948	90.2739
523.997	0.29419	90.2754
526.008	0.29456	90.642
528.018	0.29358	90.6475
529.991	0.29303	90.83
531.999	0.29212	90.9877
534.006	0.29193	90.665
536.012	0.29218	91.7924
538.018	0.29108	91.3805
539.986	0.29053	91.09
541.99	0.29175	91.1159
543.992	0.29157	91.657
545.994	0.29004	91.0257
547.995	0.29047	92.2204
549.994	0.28894	91.4447
551.993	0.28876	92.105
553.991	0.28851	92.7539
555.988	0.28723	92.3792
557.984	0.28632	92.17
560.015	0.28601	93.1231
562.009	0.28418	92.4219
564.002	0.28327	92.7166
565.994	0.28235	92.1309
567.986	0.28339	92.6028
570.011	0.28314	92.7884
572.001	0.28217	92.74
573.989	0.28064	92.4899
576.012	0.28015	92.4769
577.998	0.28058	92.5144
579.984	0.28021	92.5426
582.004	0.28089	92.8744
583.987	0.28217	93.2167
586.005	0.28052	92.6285
587.986	0.27912	92.2368
590.002	0.27698	92.2822
592.017	0.27429	92.6661
593.995	0.2702	92.1657
596.008	0.26544	91.8019
597.984	0.26178	91.8581
599.994	0.25867	91.7925
602.004	0.25781	92.4222
604.012	0.2547	92.1573
605.984	0.25488	92.9818
607.991	0.25293	92.5552
609.996	0.25256	92.3777
612	0.25568	92.7625
614.003	0.25745	92.2594
616.005	0.25928	92.5503
618.006	0.26172	92.4322
620.006	0.26197	91.8743
622.005	0.25922	92.0151
624.003	0.25488	92.37
625.999	0.25104	92.4614
627.995	0.24756	92.7833
629.989	0.24567	92.9663
632.017	0.24133	92.4858
634.009	0.2381	92.2133
636	0.23364	92.7403
637.99	0.22955	92.63
640.014	0.2254	92.3997
642.001	0.22327	92.9988
643.988	0.22388	93.1824
646.008	0.22791	92.2168
647.992	0.23346	93.0201
650.01	0.22894	92.6262
651.992	0.21796	93.0334
654.008	0.20953	92.2012
655.987	0.20557	92.5974
658	0.2016	92.8669
660.012	0.19775	92.417
661.988	0.20099	93.0248
663.998	0.20758	92.5101
666.006	0.21729	93.2443
668.013	0.22382	93.2256
669.985	0.22821	92.5102
671.989	0.23511	92.5544
673.993	0.24091	92.94
675.995	0.24304	92.4148
677.996	0.24439	92.3667
679.996	0.25153	91.806
681.994	0.27667	92.5012
683.992	0.28717	92.5697
685.988	0.28827	92.8659
688.017	0.29553	92.2723
690.01	0.28919	93.1359
692.003	0.26807	93.0059
693.994	0.24957	92.7992
695.983	0.23871	92.5224
698.006	0.23462	92.5637
699.994	0.23023	93.0722
702.014	0.22235	92.3959
703.998	0.21777	92.5581
706.016	0.21948	92.5815
707.998	0.23169	93.0738
710.013	0.25177	92.5443
711.992	0.26862	93.1571
714.004	0.26258	93.1121
716.015	0.242	92.4515
717.99	0.22571	93.3212
719.999	0.20978	92.2515
722.006	0.20209	92.8651
724.011	0.20142	92.9607
726.015	0.2077	92.9071
727.984	0.22235	92.9707
729.985	0.2345	92.595
731.985	0.25177	92.7586
733.984	0.24042	91.9423
736.015	0.21423	92.5505
738.011	0.21265	92.7499
740.005	0.22193	92.6202
741.998	0.21851	92.2058
743.99	0.20477	92.4844
746.014	0.1936	91.9854
748.003	0.19452	92.3337
749.99	0.198	92.7272
752.01	0.19409	92.2417
753.994	0.19037	92.5981
756.011	0.18781	92.1997
757.993	0.19159	92.4665
760.007	0.20288	92.6356
761.985	0.27576	92.4608
763.996	0.36432	92.0658
766.006	0.26099	91.1582
768.013	0.18598	91.8134
769.986	0.16315	91.8176
771.991	0.15296	92.4435
773.995	0.14313	92.1265
775.997	0.13556	92.111
777.997	0.1319	92.5562
779.996	0.13208	92.9092
781.993	0.13263	91.6097
783.989	0.13031	91.5862
786.016	0.13629	92.4372
788.009	0.16675	92.7176
790	0.16803	91.1561
791.99	0.14258	91.8938
794.011	0.13904	92.194
795.998	0.15735	91.6973
798.016	0.16229	91.3842
799.999	0.15002	91.629
802.014	0.13794	91.5921
803.994	0.13355	91.8446
806.006	0.13806	91.9404
808.016	0.14465	91.896
809.991	0.14667	91.9435
811.998	0.14661	91.5963
814.003	0.1499	91.6213
816.007	0.16394	90.8422
818.009	0.21271	92.3878
820.009	0.46051	92.1369
822.008	1.09217	91.8827
824.005	1.09217	91.4827
826	0.90253	91.0827
827.993	0.82453	90.932
829.985	0.40631	90.3154
832.008	0.35114	91.9057
833.997	0.5517	90.6499
836.016	0.38001	90.2186
838.001	0.21765	91.8141
839.985	0.27667	90.9277
841.999	0.22016	91.1486
844.011	0.12122	90.7878
845.99	0.09906	91.2008
847.999	0.09131	91.1985
850.006	0.08887	90.8367
852.011	0.08984	90.8357
854.015	0.09265	90.6932
855.985	0.09735	90.8815
857.985	0.10339	91.1829
860.015	0.10504	90.3093
862.012	0.11163	91.0282
864.007	0.12848	90.7081
866	0.14386	90.2762
867.991	0.15589	89.61132
870.012	0.17731	90.6786
872	0.20313	90.3922
873.986	0.23096	90.5551
876.001	0.26807	90.0578
878.015	0.43323	89.31013
879.996	1.09217	89.23224
882.006	1.09217	89.63224
884.014	1.01624	89.43224
885.989	0.5514	89.23224
887.993	0.39014	89.01451
889.996	0.35285	89.21205
891.997	0.48554	89.13743
893.995	0.8971	89.3501
895.992	0.77991	88.14627
897.987	0.45319	88.12529
900.012	0.3382	88.37038
902.003	0.53534	89.04374
903.992	1.00996	88.14095
906.011	0.64496	88.09402
907.996	0.29279	88.23021
910.011	0.23865	88.64977
911.992	0.32306	89.22324
914.003	0.84418	88.5683
916.012	1.09217	87.94434
917.987	0.8498	87.44434
919.992	0.47528	87.11601
921.994	0.34271	87.18469
923.995	0.25965	88.10813
925.993	0.20856	87.61719
927.99	0.19525	87.7834
930.015	0.21185	87.06982
932.008	0.21851	87.03809
933.998	0.23908	86.93415
935.986	0.36585	86.54683
938.003	0.49658	85.45694
939.987	0.46253	85.78393
942	0.39569	85.64047
944.011	0.39417	85.64613
945.988	0.40412	84.67591
947.995	0.44068	85.24849
949.999	0.5058	84.08137
952.001	0.44275	83.68963
954.001	0.31342	83.60207
955.999	0.22705	83.98285
957.994	0.18164	83.71473
959.987	0.16162	84.16267
962.009	0.15503	84.09206
963.998	0.16498	83.52204
965.985	0.20691	82.93509
968	0.26734	82.01494
970.012	0.30054	81.67809
971.992	0.29248	81.28653
974.001	0.27783	80.86174
976.007	0.39966	80.75275
978.01	0.96393	80.1893
980.011	0.96283	79.46144
982.01	0.39795	78.67854
984.007	0.21655	79.68694
986.001	0.20593	78.68983
987.993	0.31049	78.97655
990.013	0.78675	78.24821
992	1.09217	76.6866
993.985	0.63654	75.97394
995.998	0.31397	75.3259
998.008	0.21185	75.73188
999.986	0.17615	75.06599
1001.991	0.17066	74.40892
1003.994	0.1604	73.33643
1005.995	0.15192	72.93281
1007.993	0.17572	72.50262
1009.988	0.24365	71.47938
1012.011	0.26477	71.08485
1014.002	0.21289	69.88024
1015.99	        0.15894	69.16221
1018.005	0.12421	68.86208
1019.988	0.10285	68.80058
1021.999	0.09113	67.85584
1024.006	0.08508	66.63491
1026.011	0.08142	65.88619
1028.014	0.07892	64.90565
1030.014	0.08032	64.33081
1032.011	0.08179	62.94679
1034.006	0.07666	61.98417
1035.998	0.06952	61.14854
1037.988	0.06561	59.9102
1040.004	0.06366	59.21023
1041.989	0.06348	57.84573
1044	        0.06513	56.45215
1046.008	0.06909	54.78439
1048.014	0.07532	53.62855
1049.987	0.08868	52.34336
1051.988	0.09827	50.77902
1054.014	0.08264	48.6623
1056.009	0.06732	47.26141
1058	        0.05768	45.91328
1059.99	        0.05157	44.18885
1062.005	0.04761	42.61996
1063.989	0.04474	41.0567
1065.998	0.04315	39.75184
1068.005	0.0434	38.0523
1070.009	0.04535	36.22019
1072.011	0.04511	35.07762
1074.009	0.04468	33.60352
1076.004	0.04724	32.5116
1077.997	0.04437	31.01661
1079.987	0.05029	30.52733
1082.002	0.08435	30.25657
1083.986	0.08099	28.24899
1085.995	0.04688	26.46494
1088.002	0.04761	25.32785
1090.005	0.05408	24.15011
1092.006	0.03803	22.21079
1094.003	0.03003	20.5027
1095.998	0.02643	18.87539
1097.989	0.02454	17.46431
1100.006	0.0238	16.17466